 frequency       inoise_spectrum onoise_spectrum
 1.00000000e+00  1.53799571e-09  3.42766528e-08 
 1.02305973e+00  1.53473941e-09  3.42040809e-08 
 1.04665121e+00  1.53154981e-09  3.41329957e-08 
 1.07078670e+00  1.52842568e-09  3.40633694e-08 
 1.09547876e+00  1.52536577e-09  3.39951747e-08 
 1.12074020e+00  1.52236890e-09  3.39283846e-08 
 1.14658417e+00  1.51943386e-09  3.38629726e-08 
 1.17302409e+00  1.51655948e-09  3.37989126e-08 
 1.20007371e+00  1.51374462e-09  3.37361790e-08 
 1.22774708e+00  1.51098814e-09  3.36747465e-08 
 1.25605860e+00  1.50828892e-09  3.36145902e-08 
 1.28502297e+00  1.50564587e-09  3.35556855e-08 
 1.31465525e+00  1.50305789e-09  3.34980085e-08 
 1.34497085e+00  1.50052394e-09  3.34415353e-08 
 1.37598551e+00  1.49804296e-09  3.33862428e-08 
 1.40771537e+00  1.49561392e-09  3.33321079e-08 
 1.44017690e+00  1.49323582e-09  3.32791081e-08 
 1.47338699e+00  1.49090765e-09  3.32272212e-08 
 1.50736290e+00  1.48862844e-09  3.31764254e-08 
 1.54212228e+00  1.48639722e-09  3.31266992e-08 
 1.57768320e+00  1.48421306e-09  3.30780217e-08 
 1.61406415e+00  1.48207501e-09  3.30303720e-08 
 1.65128404e+00  1.47998217e-09  3.29837298e-08 
 1.68936220e+00  1.47793364e-09  3.29380750e-08 
 1.72831844e+00  1.47592854e-09  3.28933881e-08 
 1.76817299e+00  1.47396599e-09  3.28496497e-08 
 1.80894658e+00  1.47204515e-09  3.28068408e-08 
 1.85066040e+00  1.47016518e-09  3.27649427e-08 
 1.89333613e+00  1.46832526e-09  3.27239372e-08 
 1.93699595e+00  1.46652458e-09  3.26838063e-08 
 1.98166255e+00  1.46476235e-09  3.26445322e-08 
 2.02735916e+00  1.46303779e-09  3.26060976e-08 
 2.07410951e+00  1.46135013e-09  3.25684855e-08 
 2.12193792e+00  1.45969863e-09  3.25316791e-08 
 2.17086923e+00  1.45808254e-09  3.24956621e-08 
 2.22092889e+00  1.45650115e-09  3.24604183e-08 
 2.27214291e+00  1.45495374e-09  3.24259318e-08 
 2.32453791e+00  1.45343962e-09  3.23921872e-08 
 2.37814113e+00  1.45195810e-09  3.23591692e-08 
 2.43298042e+00  1.45050851e-09  3.23268628e-08 
 2.48908429e+00  1.44909019e-09  3.22952533e-08 
 2.54648190e+00  1.44770250e-09  3.22643264e-08 
 2.60520309e+00  1.44634480e-09  3.22340680e-08 
 2.66527837e+00  1.44501647e-09  3.22044640e-08 
 2.72673897e+00  1.44371690e-09  3.21755010e-08 
 2.78961683e+00  1.44244548e-09  3.21471657e-08 
 2.85394464e+00  1.44120165e-09  3.21194448e-08 
 2.91975583e+00  1.43998481e-09  3.20923256e-08 
 2.98708461e+00  1.43879440e-09  3.20657956e-08 
 3.05596598e+00  1.43762988e-09  3.20398423e-08 
 3.12643573e+00  1.43649069e-09  3.20144536e-08 
 3.19853049e+00  1.43537630e-09  3.19896177e-08 
 3.27228774e+00  1.43428619e-09  3.19653230e-08 
 3.34774581e+00  1.43321986e-09  3.19415580e-08 
 3.42494392e+00  1.43217679e-09  3.19183116e-08 
 3.50392221e+00  1.43115650e-09  3.18955728e-08 
 3.58472171e+00  1.43015850e-09  3.18733308e-08 
 3.66738442e+00  1.42918232e-09  3.18515752e-08 
 3.75195331e+00  1.42822750e-09  3.18302955e-08 
 3.83847234e+00  1.42729359e-09  3.18094818e-08 
 3.92698648e+00  1.42638013e-09  3.17891240e-08 
 4.01754173e+00  1.42548670e-09  3.17692125e-08 
 4.11018515e+00  1.42461286e-09  3.17497377e-08 
 4.20496491e+00  1.42375821e-09  3.17306903e-08 
 4.30193027e+00  1.42292232e-09  3.17120612e-08 
 4.40113162e+00  1.42210479e-09  3.16938414e-08 
 4.50262052e+00  1.42130524e-09  3.16760221e-08 
 4.60644974e+00  1.42052328e-09  3.16585948e-08 
 4.71267322e+00  1.41975852e-09  3.16415511e-08 
 4.82134619e+00  1.41901061e-09  3.16248826e-08 
 4.93252513e+00  1.41827917e-09  3.16085813e-08 
 5.04626783e+00  1.41756385e-09  3.15926393e-08 
 5.16263340e+00  1.41686431e-09  3.15770489e-08 
 5.28168234e+00  1.41618020e-09  3.15618025e-08 
 5.40347650e+00  1.41551119e-09  3.15468926e-08 
 5.52807921e+00  1.41485696e-09  3.15323119e-08 
 5.65555523e+00  1.41421717e-09  3.15180534e-08 
 5.78597080e+00  1.41359153e-09  3.15041100e-08 
 5.91939372e+00  1.41297973e-09  3.14904750e-08 
 6.05589334e+00  1.41238146e-09  3.14771415e-08 
 6.19554061e+00  1.41179642e-09  3.14641032e-08 
 6.33840810e+00  1.41122434e-09  3.14513535e-08 
 6.48457008e+00  1.41066493e-09  3.14388861e-08 
 6.63410251e+00  1.41011792e-09  3.14266950e-08 
 6.78708313e+00  1.40958303e-09  3.14147742e-08 
 6.94359143e+00  1.40906000e-09  3.14031176e-08 
 7.10370877e+00  1.40854857e-09  3.13917196e-08 
 7.26751838e+00  1.40804849e-09  3.13805745e-08 
 7.43510539e+00  1.40755951e-09  3.13696768e-08 
 7.60655691e+00  1.40708139e-09  3.13590211e-08 
 7.78196206e+00  1.40661388e-09  3.13486021e-08 
 7.96141200e+00  1.40615677e-09  3.13384145e-08 
 8.14500001e+00  1.40570981e-09  3.13284534e-08 
 8.33282151e+00  1.40527279e-09  3.13187137e-08 
 8.52497412e+00  1.40484549e-09  3.13091907e-08 
 8.72155772e+00  1.40442769e-09  3.12998794e-08 
 8.92267449e+00  1.40401920e-09  3.12907754e-08 
 9.12842895e+00  1.40361979e-09  3.12818740e-08 
 9.33892805e+00  1.40322928e-09  3.12731709e-08 
 9.55428121e+00  1.40284746e-09  3.12646615e-08 
 9.77460036e+00  1.40247415e-09  3.12563417e-08 
 1.00000000e+01  1.40210916e-09  3.12482073e-08 
 1.02305973e+01  1.40175231e-09  3.12402542e-08 
 1.04665121e+01  1.40140341e-09  3.12324784e-08 
 1.07078670e+01  1.40106229e-09  3.12248760e-08 
 1.09547876e+01  1.40072877e-09  3.12174432e-08 
 1.12074020e+01  1.40040270e-09  3.12101761e-08 
 1.14658417e+01  1.40008391e-09  3.12030713e-08 
 1.17302409e+01  1.39977223e-09  3.11961250e-08 
 1.20007371e+01  1.39946751e-09  3.11893338e-08 
 1.22774708e+01  1.39916959e-09  3.11826943e-08 
 1.25605860e+01  1.39887833e-09  3.11762030e-08 
 1.28502297e+01  1.39859357e-09  3.11698568e-08 
 1.31465525e+01  1.39831517e-09  3.11636523e-08 
 1.34497085e+01  1.39804300e-09  3.11575865e-08 
 1.37598551e+01  1.39777691e-09  3.11516563e-08 
 1.40771537e+01  1.39751677e-09  3.11458586e-08 
 1.44017690e+01  1.39726245e-09  3.11401906e-08 
 1.47338699e+01  1.39701381e-09  3.11346493e-08 
 1.50736290e+01  1.39677073e-09  3.11292320e-08 
 1.54212228e+01  1.39653310e-09  3.11239359e-08 
 1.57768320e+01  1.39630078e-09  3.11187583e-08 
 1.61406415e+01  1.39607366e-09  3.11136966e-08 
 1.65128404e+01  1.39585162e-09  3.11087481e-08 
 1.68936220e+01  1.39563455e-09  3.11039105e-08 
 1.72831844e+01  1.39542235e-09  3.10991811e-08 
 1.76817299e+01  1.39521489e-09  3.10945577e-08 
 1.80894658e+01  1.39501208e-09  3.10900378e-08 
 1.85066040e+01  1.39481382e-09  3.10856191e-08 
 1.89333613e+01  1.39461999e-09  3.10812994e-08 
 1.93699595e+01  1.39443051e-09  3.10770765e-08 
 1.98166255e+01  1.39424528e-09  3.10729483e-08 
 2.02735916e+01  1.39406419e-09  3.10689126e-08 
 2.07410951e+01  1.39388717e-09  3.10649673e-08 
 2.12193792e+01  1.39371411e-09  3.10611104e-08 
 2.17086923e+01  1.39354494e-09  3.10573401e-08 
 2.22092889e+01  1.39337955e-09  3.10536543e-08 
 2.27214291e+01  1.39321788e-09  3.10500511e-08 
 2.32453791e+01  1.39305983e-09  3.10465287e-08 
 2.37814113e+01  1.39290533e-09  3.10430854e-08 
 2.43298042e+01  1.39275429e-09  3.10397193e-08 
 2.48908429e+01  1.39260664e-09  3.10364287e-08 
 2.54648190e+01  1.39246231e-09  3.10332119e-08 
 2.60520309e+01  1.39232121e-09  3.10300674e-08 
 2.66527837e+01  1.39218328e-09  3.10269934e-08 
 2.72673897e+01  1.39204844e-09  3.10239884e-08 
 2.78961683e+01  1.39191664e-09  3.10210508e-08 
 2.85394464e+01  1.39178779e-09  3.10181792e-08 
 2.91975583e+01  1.39166183e-09  3.10153721e-08 
 2.98708461e+01  1.39153870e-09  3.10126279e-08 
 3.05596598e+01  1.39141834e-09  3.10099454e-08 
 3.12643573e+01  1.39130068e-09  3.10073232e-08 
 3.19853049e+01  1.39118566e-09  3.10047598e-08 
 3.27228774e+01  1.39107322e-09  3.10022540e-08 
 3.34774581e+01  1.39096331e-09  3.09998045e-08 
 3.42494392e+01  1.39085587e-09  3.09974100e-08 
 3.50392221e+01  1.39075085e-09  3.09950693e-08 
 3.58472171e+01  1.39064818e-09  3.09927812e-08 
 3.66738442e+01  1.39054782e-09  3.09905445e-08 
 3.75195331e+01  1.39044971e-09  3.09883581e-08 
 3.83847234e+01  1.39035381e-09  3.09862208e-08 
 3.92698648e+01  1.39026007e-09  3.09841315e-08 
 4.01754173e+01  1.39016843e-09  3.09820892e-08 
 4.11018515e+01  1.39007885e-09  3.09800928e-08 
 4.20496491e+01  1.38999128e-09  3.09781413e-08 
 4.30193027e+01  1.38990569e-09  3.09762336e-08 
 4.40113162e+01  1.38982201e-09  3.09743688e-08 
 4.50262052e+01  1.38974022e-09  3.09725460e-08 
 4.60644974e+01  1.38966027e-09  3.09707641e-08 
 4.71267322e+01  1.38958211e-09  3.09690223e-08 
 4.82134619e+01  1.38950572e-09  3.09673197e-08 
 4.93252513e+01  1.38943104e-09  3.09656553e-08 
 5.04626783e+01  1.38935804e-09  3.09640284e-08 
 5.16263340e+01  1.38928668e-09  3.09624380e-08 
 5.28168234e+01  1.38921692e-09  3.09608835e-08 
 5.40347650e+01  1.38914874e-09  3.09593638e-08 
 5.52807921e+01  1.38908209e-09  3.09578784e-08 
 5.65555523e+01  1.38901693e-09  3.09564264e-08 
 5.78597080e+01  1.38895325e-09  3.09550070e-08 
 5.91939372e+01  1.38889099e-09  3.09536196e-08 
 6.05589334e+01  1.38883014e-09  3.09522634e-08 
 6.19554061e+01  1.38877066e-09  3.09509377e-08 
 6.33840810e+01  1.38871251e-09  3.09496418e-08 
 6.48457008e+01  1.38865567e-09  3.09483751e-08 
 6.63410251e+01  1.38860011e-09  3.09471369e-08 
 6.78708313e+01  1.38854581e-09  3.09459265e-08 
 6.94359143e+01  1.38849272e-09  3.09447434e-08 
 7.10370877e+01  1.38844083e-09  3.09435869e-08 
 7.26751838e+01  1.38839010e-09  3.09424565e-08 
 7.43510539e+01  1.38834052e-09  3.09413514e-08 
 7.60655691e+01  1.38829205e-09  3.09402713e-08 
 7.78196206e+01  1.38824468e-09  3.09392154e-08 
 7.96141200e+01  1.38819837e-09  3.09381833e-08 
 8.14500001e+01  1.38815310e-09  3.09371745e-08 
 8.33282151e+01  1.38810885e-09  3.09361883e-08 
 8.52497412e+01  1.38806560e-09  3.09352244e-08 
 8.72155772e+01  1.38802332e-09  3.09342821e-08 
 8.92267449e+01  1.38798199e-09  3.09333611e-08 
 9.12842895e+01  1.38794160e-09  3.09324608e-08 
 9.33892805e+01  1.38790211e-09  3.09315807e-08 
 9.55428121e+01  1.38786351e-09  3.09307205e-08 
 9.77460036e+01  1.38782578e-09  3.09298796e-08 
 1.00000000e+02  1.38778890e-09  3.09290577e-08 
 1.02305973e+02  1.38775285e-09  3.09282543e-08 
 1.04665121e+02  1.38771761e-09  3.09274689e-08 
 1.07078670e+02  1.38768317e-09  3.09267013e-08 
 1.09547876e+02  1.38764950e-09  3.09259509e-08 
 1.12074020e+02  1.38761659e-09  3.09252174e-08 
 1.14658417e+02  1.38758442e-09  3.09245005e-08 
 1.17302409e+02  1.38755297e-09  3.09237997e-08 
 1.20007371e+02  1.38752223e-09  3.09231146e-08 
 1.22774708e+02  1.38749219e-09  3.09224450e-08 
 1.25605860e+02  1.38746282e-09  3.09217905e-08 
 1.28502297e+02  1.38743411e-09  3.09211507e-08 
 1.31465525e+02  1.38740605e-09  3.09205253e-08 
 1.34497085e+02  1.38737862e-09  3.09199140e-08 
 1.37598551e+02  1.38735181e-09  3.09193165e-08 
 1.40771537e+02  1.38732561e-09  3.09187324e-08 
 1.44017690e+02  1.38729999e-09  3.09181615e-08 
 1.47338699e+02  1.38727495e-09  3.09176034e-08 
 1.50736290e+02  1.38725047e-09  3.09170579e-08 
 1.54212228e+02  1.38722655e-09  3.09165247e-08 
 1.57768320e+02  1.38720316e-09  3.09160035e-08 
 1.61406415e+02  1.38718030e-09  3.09154941e-08 
 1.65128404e+02  1.38715796e-09  3.09149961e-08 
 1.68936220e+02  1.38713612e-09  3.09145093e-08 
 1.72831844e+02  1.38711477e-09  3.09140335e-08 
 1.76817299e+02  1.38709390e-09  3.09135684e-08 
 1.80894658e+02  1.38707350e-09  3.09131138e-08 
 1.85066040e+02  1.38705356e-09  3.09126694e-08 
 1.89333613e+02  1.38703407e-09  3.09122351e-08 
 1.93699595e+02  1.38701502e-09  3.09118105e-08 
 1.98166255e+02  1.38699640e-09  3.09113955e-08 
 2.02735916e+02  1.38697820e-09  3.09109898e-08 
 2.07410951e+02  1.38696041e-09  3.09105933e-08 
 2.12193792e+02  1.38694301e-09  3.09102057e-08 
 2.17086923e+02  1.38692602e-09  3.09098268e-08 
 2.22092889e+02  1.38690940e-09  3.09094565e-08 
 2.27214291e+02  1.38689316e-09  3.09090945e-08 
 2.32453791e+02  1.38687728e-09  3.09087407e-08 
 2.37814113e+02  1.38686176e-09  3.09083948e-08 
 2.43298042e+02  1.38684659e-09  3.09080567e-08 
 2.48908429e+02  1.38683177e-09  3.09077263e-08 
 2.54648190e+02  1.38681727e-09  3.09074033e-08 
 2.60520309e+02  1.38680311e-09  3.09070875e-08 
 2.66527837e+02  1.38678926e-09  3.09067789e-08 
 2.72673897e+02  1.38677572e-09  3.09064773e-08 
 2.78961683e+02  1.38676249e-09  3.09061824e-08 
 2.85394464e+02  1.38674956e-09  3.09058942e-08 
 2.91975583e+02  1.38673692e-09  3.09056124e-08 
 2.98708461e+02  1.38672456e-09  3.09053370e-08 
 3.05596598e+02  1.38671249e-09  3.09050678e-08 
 3.12643573e+02  1.38670068e-09  3.09048047e-08 
 3.19853049e+02  1.38668914e-09  3.09045475e-08 
 3.27228774e+02  1.38667786e-09  3.09042961e-08 
 3.34774581e+02  1.38666684e-09  3.09040504e-08 
 3.42494392e+02  1.38665606e-09  3.09038102e-08 
 3.50392221e+02  1.38664553e-09  3.09035754e-08 
 3.58472171e+02  1.38663523e-09  3.09033459e-08 
 3.66738442e+02  1.38662516e-09  3.09031216e-08 
 3.75195331e+02  1.38661533e-09  3.09029023e-08 
 3.83847234e+02  1.38660571e-09  3.09026880e-08 
 3.92698648e+02  1.38659631e-09  3.09024785e-08 
 4.01754173e+02  1.38658712e-09  3.09022737e-08 
 4.11018515e+02  1.38657814e-09  3.09020735e-08 
 4.20496491e+02  1.38656936e-09  3.09018778e-08 
 4.30193027e+02  1.38656078e-09  3.09016866e-08 
 4.40113162e+02  1.38655240e-09  3.09014996e-08 
 4.50262052e+02  1.38654420e-09  3.09013169e-08 
 4.60644974e+02  1.38653618e-09  3.09011382e-08 
 4.71267322e+02  1.38652835e-09  3.09009636e-08 
 4.82134619e+02  1.38652069e-09  3.09007930e-08 
 4.93252513e+02  1.38651321e-09  3.09006261e-08 
 5.04626783e+02  1.38650590e-09  3.09004631e-08 
 5.16263340e+02  1.38649874e-09  3.09003037e-08 
 5.28168234e+02  1.38649176e-09  3.09001478e-08 
 5.40347650e+02  1.38648492e-09  3.08999955e-08 
 5.52807921e+02  1.38647825e-09  3.08998467e-08 
 5.65555523e+02  1.38647172e-09  3.08997011e-08 
 5.78597080e+02  1.38646534e-09  3.08995589e-08 
 5.91939372e+02  1.38645910e-09  3.08994199e-08 
 6.05589334e+02  1.38645301e-09  3.08992839e-08 
 6.19554061e+02  1.38644705e-09  3.08991511e-08 
 6.33840810e+02  1.38644122e-09  3.08990212e-08 
 6.48457008e+02  1.38643553e-09  3.08988943e-08 
 6.63410251e+02  1.38642997e-09  3.08987702e-08 
 6.78708313e+02  1.38642453e-09  3.08986489e-08 
 6.94359143e+02  1.38641921e-09  3.08985303e-08 
 7.10370877e+02  1.38641401e-09  3.08984144e-08 
 7.26751838e+02  1.38640893e-09  3.08983011e-08 
 7.43510539e+02  1.38640397e-09  3.08981904e-08 
 7.60655691e+02  1.38639911e-09  3.08980821e-08 
 7.78196206e+02  1.38639437e-09  3.08979763e-08 
 7.96141200e+02  1.38638973e-09  3.08978729e-08 
 8.14500001e+02  1.38638520e-09  3.08977717e-08 
 8.33282151e+02  1.38638077e-09  3.08976729e-08 
 8.52497412e+02  1.38637644e-09  3.08975763e-08 
 8.72155772e+02  1.38637221e-09  3.08974818e-08 
 8.92267449e+02  1.38636807e-09  3.08973895e-08 
 9.12842895e+02  1.38636402e-09  3.08972992e-08 
 9.33892805e+02  1.38636007e-09  3.08972110e-08 
 9.55428121e+02  1.38635621e-09  3.08971247e-08 
 9.77460036e+02  1.38635243e-09  3.08970404e-08 
 1.00000000e+03  1.38634874e-09  3.08969579e-08 
 1.02305973e+03  1.38634513e-09  3.08968774e-08 
 1.04665121e+03  1.38634160e-09  3.08967986e-08 
 1.07078670e+03  1.38633815e-09  3.08967216e-08 
 1.09547876e+03  1.38633478e-09  3.08966463e-08 
 1.12074020e+03  1.38633149e-09  3.08965726e-08 
 1.14658417e+03  1.38632827e-09  3.08965007e-08 
 1.17302409e+03  1.38632512e-09  3.08964303e-08 
 1.20007371e+03  1.38632205e-09  3.08963615e-08 
 1.22774708e+03  1.38631904e-09  3.08962943e-08 
 1.25605860e+03  1.38631610e-09  3.08962285e-08 
 1.28502297e+03  1.38631323e-09  3.08961642e-08 
 1.31465525e+03  1.38631042e-09  3.08961014e-08 
 1.34497085e+03  1.38630767e-09  3.08960399e-08 
 1.37598551e+03  1.38630499e-09  3.08959798e-08 
 1.40771537e+03  1.38630237e-09  3.08959210e-08 
 1.44017690e+03  1.38629980e-09  3.08958636e-08 
 1.47338699e+03  1.38629730e-09  3.08958074e-08 
 1.50736290e+03  1.38629485e-09  3.08957524e-08 
 1.54212228e+03  1.38629246e-09  3.08956987e-08 
 1.57768320e+03  1.38629011e-09  3.08956462e-08 
 1.61406415e+03  1.38628783e-09  3.08955948e-08 
 1.65128404e+03  1.38628559e-09  3.08955445e-08 
 1.68936220e+03  1.38628341e-09  3.08954954e-08 
 1.72831844e+03  1.38628127e-09  3.08954473e-08 
 1.76817299e+03  1.38627918e-09  3.08954003e-08 
 1.80894658e+03  1.38627714e-09  3.08953543e-08 
 1.85066040e+03  1.38627515e-09  3.08953093e-08 
 1.89333613e+03  1.38627320e-09  3.08952652e-08 
 1.93699595e+03  1.38627129e-09  3.08952222e-08 
 1.98166255e+03  1.38626943e-09  3.08951800e-08 
 2.02735916e+03  1.38626761e-09  3.08951388e-08 
 2.07410951e+03  1.38626583e-09  3.08950984e-08 
 2.12193792e+03  1.38626409e-09  3.08950589e-08 
 2.17086923e+03  1.38626238e-09  3.08950203e-08 
 2.22092889e+03  1.38626072e-09  3.08949825e-08 
 2.27214291e+03  1.38625910e-09  3.08949454e-08 
 2.32453791e+03  1.38625751e-09  3.08949092e-08 
 2.37814113e+03  1.38625596e-09  3.08948737e-08 
 2.43298042e+03  1.38625444e-09  3.08948390e-08 
 2.48908429e+03  1.38625296e-09  3.08948049e-08 
 2.54648190e+03  1.38625151e-09  3.08947716e-08 
 2.60520309e+03  1.38625009e-09  3.08947389e-08 
 2.66527837e+03  1.38624870e-09  3.08947069e-08 
 2.72673897e+03  1.38624735e-09  3.08946756e-08 
 2.78961683e+03  1.38624603e-09  3.08946449e-08 
 2.85394464e+03  1.38624473e-09  3.08946148e-08 
 2.91975583e+03  1.38624347e-09  3.08945852e-08 
 2.98708461e+03  1.38624223e-09  3.08945563e-08 
 3.05596598e+03  1.38624102e-09  3.08945279e-08 
 3.12643573e+03  1.38623984e-09  3.08945000e-08 
 3.19853049e+03  1.38623869e-09  3.08944727e-08 
 3.27228774e+03  1.38623756e-09  3.08944459e-08 
 3.34774581e+03  1.38623646e-09  3.08944195e-08 
 3.42494392e+03  1.38623538e-09  3.08943936e-08 
 3.50392221e+03  1.38623432e-09  3.08943682e-08 
 3.58472171e+03  1.38623329e-09  3.08943433e-08 
 3.66738442e+03  1.38623229e-09  3.08943187e-08 
 3.75195331e+03  1.38623130e-09  3.08942946e-08 
 3.83847234e+03  1.38623034e-09  3.08942708e-08 
 3.92698648e+03  1.38622940e-09  3.08942474e-08 
 4.01754173e+03  1.38622848e-09  3.08942244e-08 
 4.11018515e+03  1.38622758e-09  3.08942017e-08 
 4.20496491e+03  1.38622671e-09  3.08941794e-08 
 4.30193027e+03  1.38622585e-09  3.08941573e-08 
 4.40113162e+03  1.38622501e-09  3.08941356e-08 
 4.50262052e+03  1.38622419e-09  3.08941141e-08 
 4.60644974e+03  1.38622339e-09  3.08940929e-08 
 4.71267322e+03  1.38622260e-09  3.08940719e-08 
 4.82134619e+03  1.38622184e-09  3.08940512e-08 
 4.93252513e+03  1.38622109e-09  3.08940307e-08 
 5.04626783e+03  1.38622036e-09  3.08940104e-08 
 5.16263340e+03  1.38621964e-09  3.08939903e-08 
 5.28168234e+03  1.38621894e-09  3.08939703e-08 
 5.40347650e+03  1.38621826e-09  3.08939505e-08 
 5.52807921e+03  1.38621759e-09  3.08939308e-08 
 5.65555523e+03  1.38621694e-09  3.08939112e-08 
 5.78597080e+03  1.38621630e-09  3.08938917e-08 
 5.91939372e+03  1.38621568e-09  3.08938723e-08 
 6.05589334e+03  1.38621507e-09  3.08938529e-08 
 6.19554061e+03  1.38621447e-09  3.08938336e-08 
 6.33840810e+03  1.38621389e-09  3.08938143e-08 
 6.48457008e+03  1.38621332e-09  3.08937950e-08 
 6.63410251e+03  1.38621276e-09  3.08937757e-08 
 6.78708313e+03  1.38621222e-09  3.08937563e-08 
 6.94359143e+03  1.38621169e-09  3.08937368e-08 
 7.10370877e+03  1.38621117e-09  3.08937173e-08 
 7.26751838e+03  1.38621066e-09  3.08936977e-08 
 7.43510539e+03  1.38621016e-09  3.08936779e-08 
 7.60655691e+03  1.38620968e-09  3.08936580e-08 
 7.78196206e+03  1.38620920e-09  3.08936379e-08 
 7.96141200e+03  1.38620874e-09  3.08936176e-08 
 8.14500001e+03  1.38620829e-09  3.08935970e-08 
 8.33282151e+03  1.38620784e-09  3.08935762e-08 
 8.52497412e+03  1.38620741e-09  3.08935551e-08 
 8.72155772e+03  1.38620699e-09  3.08935337e-08 
 8.92267449e+03  1.38620657e-09  3.08935120e-08 
 9.12842895e+03  1.38620617e-09  3.08934898e-08 
 9.33892805e+03  1.38620577e-09  3.08934673e-08 
 9.55428121e+03  1.38620539e-09  3.08934443e-08 
 9.77460036e+03  1.38620501e-09  3.08934209e-08 
 1.00000000e+04  1.38620464e-09  3.08933969e-08 
 1.02305973e+04  1.38620428e-09  3.08933724e-08 
 1.04665121e+04  1.38620393e-09  3.08933473e-08 
