 frequency       ph(  (ac1.vout2-ac1.vout1))
 1.00000000e+01 -3.79742443e-04 
 1.02329299e+01 -3.88587780e-04 
 1.04712855e+01 -3.97639152e-04 
 1.07151931e+01 -4.06901356e-04 
 1.09647820e+01 -4.16379305e-04 
 1.12201845e+01 -4.26078024e-04 
 1.14815362e+01 -4.36002655e-04 
 1.17489755e+01 -4.46158460e-04 
 1.20226443e+01 -4.56550824e-04 
 1.23026877e+01 -4.67185258e-04 
 1.25892541e+01 -4.78067399e-04 
 1.28824955e+01 -4.89203017e-04 
 1.31825674e+01 -5.00598017e-04 
 1.34896288e+01 -5.12258441e-04 
 1.38038426e+01 -5.24190471e-04 
 1.41253754e+01 -5.36400433e-04 
 1.44543977e+01 -5.48894802e-04 
 1.47910839e+01 -5.61680201e-04 
 1.51356125e+01 -5.74763411e-04 
 1.54881662e+01 -5.88151368e-04 
 1.58489319e+01 -6.01851170e-04 
 1.62181010e+01 -6.15870081e-04 
 1.65958691e+01 -6.30215534e-04 
 1.69824365e+01 -6.44895136e-04 
 1.73780083e+01 -6.59916669e-04 
 1.77827941e+01 -6.75288098e-04 
 1.81970086e+01 -6.91017574e-04 
 1.86208714e+01 -7.07113435e-04 
 1.90546072e+01 -7.23584218e-04 
 1.94984460e+01 -7.40438653e-04 
 1.99526231e+01 -7.57685678e-04 
 2.04173794e+01 -7.75334438e-04 
 2.08929613e+01 -7.93394290e-04 
 2.13796209e+01 -8.11874809e-04 
 2.18776162e+01 -8.30785794e-04 
 2.23872114e+01 -8.50137272e-04 
 2.29086765e+01 -8.69939503e-04 
 2.34422882e+01 -8.90202986e-04 
 2.39883292e+01 -9.10938466e-04 
 2.45470892e+01 -9.32156937e-04 
 2.51188643e+01 -9.53869648e-04 
 2.57039578e+01 -9.76088113e-04 
 2.63026799e+01 -9.98824111e-04 
 2.69153480e+01 -1.02208970e-03 
 2.75422870e+01 -1.04589721e-03 
 2.81838293e+01 -1.07025926e-03 
 2.88403150e+01 -1.09518879e-03 
 2.95120923e+01 -1.12069899e-03 
 3.01995172e+01 -1.14680340e-03 
 3.09029543e+01 -1.17351586e-03 
 3.16227766e+01 -1.20085053e-03 
 3.23593657e+01 -1.22882190e-03 
 3.31131121e+01 -1.25744481e-03 
 3.38844156e+01 -1.28673443e-03 
 3.46736850e+01 -1.31670629e-03 
 3.54813389e+01 -1.34737628e-03 
 3.63078055e+01 -1.37876067e-03 
 3.71535229e+01 -1.41087609e-03 
 3.80189396e+01 -1.44373957e-03 
 3.89045145e+01 -1.47736854e-03 
 3.98107171e+01 -1.51178082e-03 
 4.07380278e+01 -1.54699466e-03 
 4.16869383e+01 -1.58302874e-03 
 4.26579519e+01 -1.61990215e-03 
 4.36515832e+01 -1.65763445e-03 
 4.46683592e+01 -1.69624565e-03 
 4.57088190e+01 -1.73575620e-03 
 4.67735141e+01 -1.77618708e-03 
 4.78630092e+01 -1.81755970e-03 
 4.89778819e+01 -1.85989601e-03 
 5.01187234e+01 -1.90321845e-03 
 5.12861384e+01 -1.94754999e-03 
 5.24807460e+01 -1.99291414e-03 
 5.37031796e+01 -2.03933494e-03 
 5.49540874e+01 -2.08683702e-03 
 5.62341325e+01 -2.13544555e-03 
 5.75439937e+01 -2.18518631e-03 
 5.88843655e+01 -2.23608567e-03 
 6.02559586e+01 -2.28817062e-03 
 6.16595002e+01 -2.34146877e-03 
 6.30957344e+01 -2.39600838e-03 
 6.45654229e+01 -2.45181836e-03 
 6.60693448e+01 -2.50892831e-03 
 6.76082975e+01 -2.56736851e-03 
 6.91830971e+01 -2.62716993e-03 
 7.07945784e+01 -2.68836429e-03 
 7.24435960e+01 -2.75098402e-03 
 7.41310241e+01 -2.81506234e-03 
 7.58577575e+01 -2.88063321e-03 
 7.76247117e+01 -2.94773139e-03 
 7.94328235e+01 -3.01639246e-03 
 8.12830516e+01 -3.08665283e-03 
 8.31763771e+01 -3.15854974e-03 
 8.51138038e+01 -3.23212131e-03 
 8.70963590e+01 -3.30740654e-03 
 8.91250938e+01 -3.38444536e-03 
 9.12010839e+01 -3.46327860e-03 
 9.33254301e+01 -3.54394805e-03 
 9.54992586e+01 -3.62649649e-03 
 9.77237221e+01 -3.71096768e-03 
 1.00000000e+02 -3.79740640e-03 
 1.02329299e+02 -3.88585848e-03 
 1.04712855e+02 -3.97637081e-03 
 1.07151931e+02 -4.06899138e-03 
 1.09647820e+02 -4.16376928e-03 
 1.12201845e+02 -4.26075477e-03 
 1.14815362e+02 -4.35999926e-03 
 1.17489755e+02 -4.46155536e-03 
 1.20226443e+02 -4.56547691e-03 
 1.23026877e+02 -4.67181900e-03 
 1.25892541e+02 -4.78063801e-03 
 1.28824955e+02 -4.89199162e-03 
 1.31825674e+02 -5.00593887e-03 
 1.34896288e+02 -5.12254015e-03 
 1.38038426e+02 -5.24185728e-03 
 1.41253754e+02 -5.36395351e-03 
 1.44543977e+02 -5.48889357e-03 
 1.47910839e+02 -5.61674367e-03 
 1.51356125e+02 -5.74757160e-03 
 1.54881662e+02 -5.88144669e-03 
 1.58489319e+02 -6.01843992e-03 
 1.62181010e+02 -6.15862390e-03 
 1.65958691e+02 -6.30207293e-03 
 1.69824365e+02 -6.44886305e-03 
 1.73780083e+02 -6.59907207e-03 
 1.77827941e+02 -6.75277959e-03 
 1.81970086e+02 -6.91006710e-03 
 1.86208714e+02 -7.07101794e-03 
 1.90546072e+02 -7.23571744e-03 
 1.94984460e+02 -7.40425288e-03 
 1.99526231e+02 -7.57671357e-03 
 2.04173794e+02 -7.75319092e-03 
 2.08929613e+02 -7.93377847e-03 
 2.13796209e+02 -8.11857190e-03 
 2.18776162e+02 -8.30766915e-03 
 2.23872114e+02 -8.50117042e-03 
 2.29086765e+02 -8.69917827e-03 
 2.34422882e+02 -8.90179760e-03 
 2.39883292e+02 -9.10913579e-03 
 2.45470892e+02 -9.32130270e-03 
 2.51188643e+02 -9.53841074e-03 
 2.57039578e+02 -9.76057495e-03 
 2.63026799e+02 -9.98791303e-03 
 2.69153480e+02 -1.02205454e-02 
 2.75422870e+02 -1.04585954e-02 
 2.81838293e+02 -1.07021890e-02 
 2.88403150e+02 -1.09514554e-02 
 2.95120923e+02 -1.12065265e-02 
 3.01995172e+02 -1.14675374e-02 
 3.09029543e+02 -1.17346265e-02 
 3.16227766e+02 -1.20079352e-02 
 3.23593657e+02 -1.22876081e-02 
 3.31131121e+02 -1.25737935e-02 
 3.38844156e+02 -1.28666429e-02 
 3.46736850e+02 -1.31663114e-02 
 3.54813389e+02 -1.34729576e-02 
 3.63078055e+02 -1.37867438e-02 
 3.71535229e+02 -1.41078363e-02 
 3.80189396e+02 -1.44364050e-02 
 3.89045145e+02 -1.47726238e-02 
 3.98107171e+02 -1.51166707e-02 
 4.07380278e+02 -1.54687278e-02 
 4.16869383e+02 -1.58289814e-02 
 4.26579519e+02 -1.61976221e-02 
 4.36515832e+02 -1.65748451e-02 
 4.46683592e+02 -1.69608498e-02 
 4.57088190e+02 -1.73558405e-02 
 4.67735141e+02 -1.77600261e-02 
 4.78630092e+02 -1.81736204e-02 
 4.89778819e+02 -1.85968421e-02 
 5.01187234e+02 -1.90299151e-02 
 5.12861384e+02 -1.94730682e-02 
 5.24807460e+02 -1.99265358e-02 
 5.37031796e+02 -2.03905576e-02 
 5.49540874e+02 -2.08653787e-02 
 5.62341325e+02 -2.13512501e-02 
 5.75439937e+02 -2.18484285e-02 
 5.88843655e+02 -2.23571765e-02 
 6.02559586e+02 -2.28777629e-02 
 6.16595002e+02 -2.34104624e-02 
 6.30957344e+02 -2.39555564e-02 
 6.45654229e+02 -2.45133325e-02 
 6.60693448e+02 -2.50840851e-02 
 6.76082975e+02 -2.56681154e-02 
 6.91830971e+02 -2.62657314e-02 
 7.07945784e+02 -2.68772483e-02 
 7.24435960e+02 -2.75029885e-02 
 7.41310241e+02 -2.81432818e-02 
 7.58577575e+02 -2.87984655e-02 
 7.76247117e+02 -2.94688850e-02 
 7.94328235e+02 -3.01548931e-02 
 8.12830516e+02 -3.08568511e-02 
 8.31763771e+02 -3.15751283e-02 
 8.51138038e+02 -3.23101028e-02 
 8.70963590e+02 -3.30621609e-02 
 8.91250938e+02 -3.38316980e-02 
 9.12010839e+02 -3.46191186e-02 
 9.33254301e+02 -3.54248361e-02 
 9.54992586e+02 -3.62492737e-02 
 9.77237221e+02 -3.70928640e-02 
 1.00000000e+03 -3.79560495e-02 
 1.02329299e+03 -3.88392827e-02 
 1.04712855e+03 -3.97430265e-02 
 1.07151931e+03 -4.06677540e-02 
 1.09647820e+03 -4.16139493e-02 
 1.12201845e+03 -4.25821073e-02 
 1.14815362e+03 -4.35727341e-02 
 1.17489755e+03 -4.45863472e-02 
 1.20226443e+03 -4.56234756e-02 
 1.23026877e+03 -4.66846604e-02 
 1.25892541e+03 -4.77704548e-02 
 1.28824955e+03 -4.88814240e-02 
 1.31825674e+03 -5.00181463e-02 
 1.34896288e+03 -5.11812127e-02 
 1.38038426e+03 -5.23712272e-02 
 1.41253754e+03 -5.35888074e-02 
 1.44543977e+03 -5.48345843e-02 
 1.47910839e+03 -5.61092032e-02 
 1.51356125e+03 -5.74133232e-02 
 1.54881662e+03 -5.87476182e-02 
 1.58489319e+03 -6.01127765e-02 
 1.62181010e+03 -6.15095018e-02 
 1.65958691e+03 -6.29385128e-02 
 1.69824365e+03 -6.44005439e-02 
 1.73780083e+03 -6.58963453e-02 
 1.77827941e+03 -6.74266834e-02 
 1.81970086e+03 -6.89923410e-02 
 1.86208714e+03 -7.05941175e-02 
 1.90546072e+03 -7.22328295e-02 
 1.94984460e+03 -7.39093105e-02 
 1.99526231e+03 -7.56244120e-02 
 2.04173794e+03 -7.73790030e-02 
 2.08929613e+03 -7.91739706e-02 
 2.13796209e+03 -8.10102204e-02 
 2.18776162e+03 -8.28886765e-02 
 2.23872114e+03 -8.48102820e-02 
 2.29086765e+03 -8.67759990e-02 
 2.34422882e+03 -8.87868093e-02 
 2.39883292e+03 -9.08437139e-02 
 2.45470892e+03 -9.29477340e-02 
 2.51188643e+03 -9.50999107e-02 
 2.57039578e+03 -9.73013057e-02 
 2.63026799e+03 -9.95530008e-02 
 2.69153480e+03 -1.01856099e-01 
 2.75422870e+03 -1.04211723e-01 
 2.81838293e+03 -1.06621019e-01 
 2.88403150e+03 -1.09085151e-01 
 2.95120923e+03 -1.11605307e-01 
 3.01995172e+03 -1.14182696e-01 
 3.09029543e+03 -1.16818546e-01 
 3.16227766e+03 -1.19514110e-01 
 3.23593657e+03 -1.22270660e-01 
 3.31131121e+03 -1.25089491e-01 
 3.38844156e+03 -1.27971918e-01 
 3.46736850e+03 -1.30919278e-01 
 3.54813389e+03 -1.33932929e-01 
 3.63078055e+03 -1.37014252e-01 
 3.71535229e+03 -1.40164645e-01 
 3.80189396e+03 -1.43385530e-01 
 3.89045145e+03 -1.46678347e-01 
 3.98107171e+03 -1.50044558e-01 
 4.07380278e+03 -1.53485642e-01 
 4.16869383e+03 -1.57003099e-01 
 4.26579519e+03 -1.60598446e-01 
 4.36515832e+03 -1.64273218e-01 
 4.46683592e+03 -1.68028968e-01 
 4.57088190e+03 -1.71867263e-01 
 4.67735141e+03 -1.75789688e-01 
 4.78630092e+03 -1.79797840e-01 
 4.89778819e+03 -1.83893330e-01 
 5.01187234e+03 -1.88077781e-01 
 5.12861384e+03 -1.92352826e-01 
 5.24807460e+03 -1.96720109e-01 
 5.37031796e+03 -2.01181280e-01 
 5.49540874e+03 -2.05737995e-01 
 5.62341325e+03 -2.10391915e-01 
 5.75439937e+03 -2.15144703e-01 
 5.88843655e+03 -2.19998020e-01 
 6.02559586e+03 -2.24953529e-01 
 6.16595002e+03 -2.30012884e-01 
 6.30957344e+03 -2.35177734e-01 
 6.45654229e+03 -2.40449718e-01 
 6.60693448e+03 -2.45830460e-01 
 6.76082975e+03 -2.51321570e-01 
 6.91830971e+03 -2.56924638e-01 
 7.07945784e+03 -2.62641229e-01 
 7.24435960e+03 -2.68472884e-01 
 7.41310241e+03 -2.74421111e-01 
 7.58577575e+03 -2.80487383e-01 
 7.76247117e+03 -2.86673135e-01 
 7.94328235e+03 -2.92979756e-01 
 8.12830516e+03 -2.99408589e-01 
 8.31763771e+03 -3.05960921e-01 
 8.51138038e+03 -3.12637980e-01 
 8.70963590e+03 -3.19440929e-01 
 8.91250938e+03 -3.26370864e-01 
 9.12010839e+03 -3.33428800e-01 
 9.33254301e+03 -3.40615675e-01 
 9.54992586e+03 -3.47932335e-01 
 9.77237221e+03 -3.55379534e-01 
 1.00000000e+04 -3.62957923e-01 
 1.02329299e+04 -3.70668046e-01 
 1.04712855e+04 -3.78510334e-01 
 1.07151931e+04 -3.86485095e-01 
 1.09647820e+04 -3.94592509e-01 
 1.12201845e+04 -4.02832622e-01 
 1.14815362e+04 -4.11205337e-01 
 1.17489755e+04 -4.19710411e-01 
 1.20226443e+04 -4.28347443e-01 
 1.23026877e+04 -4.37115871e-01 
 1.25892541e+04 -4.46014965e-01 
 1.28824955e+04 -4.55043819e-01 
 1.31825674e+04 -4.64201348e-01 
 1.34896288e+04 -4.73486279e-01 
 1.38038426e+04 -4.82897150e-01 
 1.41253754e+04 -4.92432301e-01 
 1.44543977e+04 -5.02089871e-01 
 1.47910839e+04 -5.11867795e-01 
 1.51356125e+04 -5.21763799e-01 
 1.54881662e+04 -5.31775401e-01 
 1.58489319e+04 -5.41899905e-01 
 1.62181010e+04 -5.52134399e-01 
 1.65958691e+04 -5.62475762e-01 
 1.69824365e+04 -5.72920656e-01 
 1.73780083e+04 -5.83465532e-01 
 1.77827941e+04 -5.94106630e-01 
 1.81970086e+04 -6.04839985e-01 
 1.86208714e+04 -6.15661427e-01 
 1.90546072e+04 -6.26566591e-01 
 1.94984460e+04 -6.37550919e-01 
 1.99526231e+04 -6.48609669e-01 
 2.04173794e+04 -6.59737925e-01 
 2.08929613e+04 -6.70930601e-01 
 2.13796209e+04 -6.82182457e-01 
 2.18776162e+04 -6.93488104e-01 
 2.23872114e+04 -7.04842020e-01 
 2.29086765e+04 -7.16238562e-01 
 2.34422882e+04 -7.27671979e-01 
 2.39883292e+04 -7.39136424e-01 
 2.45470892e+04 -7.50625972e-01 
 2.51188643e+04 -7.62134632e-01 
 2.57039578e+04 -7.73656365e-01 
 2.63026799e+04 -7.85185098e-01 
 2.69153480e+04 -7.96714740e-01 
 2.75422870e+04 -8.08239200e-01 
 2.81838293e+04 -8.19752402e-01 
 2.88403150e+04 -8.31248301e-01 
 2.95120923e+04 -8.42720898e-01 
 3.01995172e+04 -8.54164258e-01 
 3.09029543e+04 -8.65572522e-01 
 3.16227766e+04 -8.76939924e-01 
 3.23593657e+04 -8.88260806e-01 
 3.31131121e+04 -8.99529627e-01 
 3.38844156e+04 -9.10740981e-01 
 3.46736850e+04 -9.21889606e-01 
 3.54813389e+04 -9.32970395e-01 
 3.63078055e+04 -9.43978406e-01 
 3.71535229e+04 -9.54908874e-01 
 3.80189396e+04 -9.65757217e-01 
 3.89045145e+04 -9.76519042e-01 
 3.98107171e+04 -9.87190155e-01 
 4.07380278e+04 -9.97766562e-01 
 4.16869383e+04 -1.00824448e+00 
 4.26579519e+04 -1.01862033e+00 
 4.36515832e+04 -1.02889074e+00 
 4.46683592e+04 -1.03905258e+00 
 4.57088190e+04 -1.04910290e+00 
 4.67735141e+04 -1.05903898e+00 
 4.78630092e+04 -1.06885832e+00 
 4.89778819e+04 -1.07855861e+00 
 5.01187234e+04 -1.08813777e+00 
 5.12861384e+04 -1.09759391e+00 
 5.24807460e+04 -1.10692537e+00 
 5.37031796e+04 -1.11613065e+00 
 5.49540874e+04 -1.12520846e+00 
 5.62341325e+04 -1.13415770e+00 
 5.75439937e+04 -1.14297746e+00 
 5.88843655e+04 -1.15166699e+00 
 6.02559586e+04 -1.16022571e+00 
 6.16595002e+04 -1.16865321e+00 
 6.30957344e+04 -1.17694925e+00 
 6.45654229e+04 -1.18511372e+00 
 6.60693448e+04 -1.19314665e+00 
 6.76082975e+04 -1.20104824e+00 
 6.91830971e+04 -1.20881878e+00 
 7.07945784e+04 -1.21645870e+00 
 7.24435960e+04 -1.22396856e+00 
 7.41310241e+04 -1.23134900e+00 
 7.58577575e+04 -1.23860079e+00 
 7.76247117e+04 -1.24572478e+00 
 7.94328235e+04 -1.25272192e+00 
 8.12830516e+04 -1.25959323e+00 
 8.31763771e+04 -1.26633983e+00 
 8.51138038e+04 -1.27296288e+00 
 8.70963590e+04 -1.27946363e+00 
 8.91250938e+04 -1.28584340e+00 
 9.12010839e+04 -1.29210353e+00 
 9.33254301e+04 -1.29824545e+00 
 9.54992586e+04 -1.30427060e+00 
 9.77237221e+04 -1.31018049e+00 
 1.00000000e+05 -1.31597665e+00 
 1.02329299e+05 -1.32166064e+00 
 1.04712855e+05 -1.32723406e+00 
 1.07151931e+05 -1.33269854e+00 
 1.09647820e+05 -1.33805571e+00 
 1.12201845e+05 -1.34330722e+00 
 1.14815362e+05 -1.34845476e+00 
 1.17489755e+05 -1.35350000e+00 
 1.20226443e+05 -1.35844465e+00 
 1.23026877e+05 -1.36329040e+00 
 1.25892541e+05 -1.36803894e+00 
 1.28824955e+05 -1.37269200e+00 
 1.31825674e+05 -1.37725126e+00 
 1.34896288e+05 -1.38171844e+00 
 1.38038426e+05 -1.38609522e+00 
 1.41253754e+05 -1.39038330e+00 
 1.44543977e+05 -1.39458436e+00 
 1.47910839e+05 -1.39870008e+00 
 1.51356125e+05 -1.40273210e+00 
 1.54881662e+05 -1.40668210e+00 
 1.58489319e+05 -1.41055170e+00 
 1.62181010e+05 -1.41434252e+00 
 1.65958691e+05 -1.41805618e+00 
 1.69824365e+05 -1.42169427e+00 
 1.73780083e+05 -1.42525837e+00 
 1.77827941e+05 -1.42875004e+00 
 1.81970086e+05 -1.43217082e+00 
 1.86208714e+05 -1.43552224e+00 
 1.90546072e+05 -1.43880580e+00 
 1.94984460e+05 -1.44202300e+00 
 1.99526231e+05 -1.44517530e+00 
 2.04173794e+05 -1.44826415e+00 
 2.08929613e+05 -1.45129099e+00 
 2.13796209e+05 -1.45425722e+00 
 2.18776162e+05 -1.45716424e+00 
 2.23872114e+05 -1.46001342e+00 
 2.29086765e+05 -1.46280611e+00 
 2.34422882e+05 -1.46554364e+00 
 2.39883292e+05 -1.46822734e+00 
 2.45470892e+05 -1.47085848e+00 
 2.51188643e+05 -1.47343835e+00 
 2.57039578e+05 -1.47596820e+00 
 2.63026799e+05 -1.47844927e+00 
 2.69153480e+05 -1.48088277e+00 
 2.75422870e+05 -1.48326990e+00 
 2.81838293e+05 -1.48561184e+00 
 2.88403150e+05 -1.48790976e+00 
 2.95120923e+05 -1.49016479e+00 
 3.01995172e+05 -1.49237806e+00 
 3.09029543e+05 -1.49455068e+00 
 3.16227766e+05 -1.49668373e+00 
 3.23593657e+05 -1.49877830e+00 
 3.31131121e+05 -1.50083544e+00 
 3.38844156e+05 -1.50285619e+00 
 3.46736850e+05 -1.50484157e+00 
 3.54813389e+05 -1.50679260e+00 
 3.63078055e+05 -1.50871026e+00 
 3.71535229e+05 -1.51059554e+00 
 3.80189396e+05 -1.51244939e+00 
 3.89045145e+05 -1.51427278e+00 
 3.98107171e+05 -1.51606663e+00 
 4.07380278e+05 -1.51783187e+00 
 4.16869383e+05 -1.51956941e+00 
 4.26579519e+05 -1.52128013e+00 
 4.36515832e+05 -1.52296494e+00 
 4.46683592e+05 -1.52462468e+00 
 4.57088190e+05 -1.52626024e+00 
 4.67735141e+05 -1.52787244e+00 
 4.78630092e+05 -1.52946214e+00 
 4.89778819e+05 -1.53103015e+00 
 5.01187234e+05 -1.53257730e+00 
 5.12861384e+05 -1.53410438e+00 
 5.24807460e+05 -1.53561219e+00 
 5.37031796e+05 -1.53710153e+00 
 5.49540874e+05 -1.53857316e+00 
 5.62341325e+05 -1.54002785e+00 
 5.75439937e+05 -1.54146638e+00 
 5.88843655e+05 -1.54288948e+00 
 6.02559586e+05 -1.54429790e+00 
 6.16595002e+05 -1.54569239e+00 
 6.30957344e+05 -1.54707367e+00 
 6.45654229e+05 -1.54844247e+00 
 6.60693448e+05 -1.54979951e+00 
 6.76082975e+05 -1.55114550e+00 
 6.91830971e+05 -1.55248114e+00 
 7.07945784e+05 -1.55380714e+00 
 7.24435960e+05 -1.55512419e+00 
 7.41310241e+05 -1.55643300e+00 
 7.58577575e+05 -1.55773424e+00 
 7.76247117e+05 -1.55902860e+00 
 7.94328235e+05 -1.56031677e+00 
 8.12830516e+05 -1.56159941e+00 
 8.31763771e+05 -1.56287722e+00 
 8.51138038e+05 -1.56415086e+00 
 8.70963590e+05 -1.56542099e+00 
 8.91250938e+05 -1.56668830e+00 
 9.12010839e+05 -1.56795345e+00 
 9.33254301e+05 -1.56921711e+00 
 9.54992586e+05 -1.57047994e+00 
 9.77237221e+05 -1.57174261e+00 
 1.00000000e+06 -1.57300578e+00 
 1.02329299e+06 -1.57427012e+00 
 1.04712855e+06 -1.57553630e+00 
 1.07151931e+06 -1.57680499e+00 
 1.09647820e+06 -1.57807685e+00 
 1.12201845e+06 -1.57935256e+00 
 1.14815362e+06 -1.58063278e+00 
 1.17489755e+06 -1.58191820e+00 
 1.20226443e+06 -1.58320948e+00 
 1.23026877e+06 -1.58450732e+00 
 1.25892541e+06 -1.58581239e+00 
 1.28824955e+06 -1.58712538e+00 
 1.31825674e+06 -1.58844699e+00 
 1.34896288e+06 -1.58977790e+00 
 1.38038426e+06 -1.59111883e+00 
 1.41253754e+06 -1.59247047e+00 
 1.44543977e+06 -1.59383354e+00 
 1.47910839e+06 -1.59520875e+00 
 1.51356125e+06 -1.59659682e+00 
 1.54881662e+06 -1.59799850e+00 
 1.58489319e+06 -1.59941450e+00 
 1.62181010e+06 -1.60084558e+00 
 1.65958691e+06 -1.60229248e+00 
 1.69824365e+06 -1.60375597e+00 
 1.73780083e+06 -1.60523681e+00 
 1.77827941e+06 -1.60673578e+00 
 1.81970086e+06 -1.60825366e+00 
 1.86208714e+06 -1.60979125e+00 
 1.90546072e+06 -1.61134934e+00 
 1.94984460e+06 -1.61292876e+00 
 1.99526231e+06 -1.61453032e+00 
 2.04173794e+06 -1.61615487e+00 
 2.08929613e+06 -1.61780325e+00 
 2.13796209e+06 -1.61947631e+00 
 2.18776162e+06 -1.62117492e+00 
 2.23872114e+06 -1.62289998e+00 
 2.29086765e+06 -1.62465237e+00 
 2.34422882e+06 -1.62643299e+00 
 2.39883292e+06 -1.62824278e+00 
 2.45470892e+06 -1.63008267e+00 
 2.51188643e+06 -1.63195361e+00 
 2.57039578e+06 -1.63385655e+00 
 2.63026799e+06 -1.63579249e+00 
 2.69153480e+06 -1.63776241e+00 
 2.75422870e+06 -1.63976733e+00 
 2.81838293e+06 -1.64180827e+00 
 2.88403150e+06 -1.64388627e+00 
 2.95120923e+06 -1.64600240e+00 
 3.01995172e+06 -1.64815773e+00 
 3.09029543e+06 -1.65035336e+00 
 3.16227766e+06 -1.65259040e+00 
 3.23593657e+06 -1.65486998e+00 
 3.31131121e+06 -1.65719325e+00 
 3.38844156e+06 -1.65956138e+00 
 3.46736850e+06 -1.66197556e+00 
 3.54813389e+06 -1.66443699e+00 
 3.63078055e+06 -1.66694691e+00 
 3.71535229e+06 -1.66950656e+00 
 3.80189396e+06 -1.67211722e+00 
 3.89045145e+06 -1.67478016e+00 
 3.98107171e+06 -1.67749671e+00 
 4.07380278e+06 -1.68026820e+00 
 4.16869383e+06 -1.68309597e+00 
 4.26579519e+06 -1.68598140e+00 
 4.36515832e+06 -1.68892590e+00 
 4.46683592e+06 -1.69193088e+00 
 4.57088190e+06 -1.69499778e+00 
 4.67735141e+06 -1.69812807e+00 
 4.78630092e+06 -1.70132323e+00 
 4.89778819e+06 -1.70458478e+00 
 5.01187234e+06 -1.70791424e+00 
 5.12861384e+06 -1.71131317e+00 
 5.24807460e+06 -1.71478314e+00 
 5.37031796e+06 -1.71832576e+00 
 5.49540874e+06 -1.72194263e+00 
 5.62341325e+06 -1.72563541e+00 
 5.75439937e+06 -1.72940576e+00 
 5.88843655e+06 -1.73325536e+00 
 6.02559586e+06 -1.73718591e+00 
 6.16595002e+06 -1.74119914e+00 
 6.30957344e+06 -1.74529680e+00 
 6.45654229e+06 -1.74948064e+00 
 6.60693448e+06 -1.75375245e+00 
 6.76082975e+06 -1.75811402e+00 
 6.91830971e+06 -1.76256718e+00 
 7.07945784e+06 -1.76711374e+00 
 7.24435960e+06 -1.77175556e+00 
 7.41310241e+06 -1.77649449e+00 
 7.58577575e+06 -1.78133239e+00 
 7.76247117e+06 -1.78627115e+00 
 7.94328235e+06 -1.79131265e+00 
 8.12830516e+06 -1.79645878e+00 
 8.31763771e+06 -1.80171145e+00 
 8.51138038e+06 -1.80707254e+00 
 8.70963590e+06 -1.81254397e+00 
 8.91250938e+06 -1.81812762e+00 
 9.12010839e+06 -1.82382539e+00 
 9.33254301e+06 -1.82963917e+00 
 9.54992586e+06 -1.83557083e+00 
 9.77237221e+06 -1.84162224e+00 
 1.00000000e+07 -1.84779523e+00 
 1.02329299e+07 -1.85409163e+00 
 1.04712855e+07 -1.86051325e+00 
 1.07151931e+07 -1.86706185e+00 
